Solve Summary
Key,Value
Status,OK
DiagnosticsCount,2
FluidName,Arab Light
Trays,32
FeedTray,3
ComponentCount,30
CondenserType,total
ReboilerType,partial
CondenserSpec,temperature
ReboilerSpec,duty

Energy / Boundary Summary
Key,Value
Tc_set_K,398.150000
Tc_calc_K,398.150000
Qc_set_kW,-6200.000000
Qc_calc_kW,-6848.825398
Treb_set_K,618.150000
Treb_calc_K,703.674138
Qr_set_kW,6200.000000
Qr_calc_kW,6200.000000
RefluxRatio_set,2.000000
RefluxRatio_calc,2.003632
BoilupRatio_set,0.060000
BoilupRatio_calc,19.291408
RefluxFraction,0.400435
BoilupFraction,0.950718
D_kgph,50074.368085
B_kgph,2341.244618
L_ref_kgph,102682.491092
V_boil_kgph,46224.662907

Mass Balance Summary
Key,Value
Feed_kgph,100000.000000
Overhead_kgph,50074.368085
Bottoms_kgph,2341.244618
TotalProducts_kgph,100000.000000
MassClosureError_kgph,0.000000
MassClosureRelativePct,0.000000

Side Draw Summary
Name,Tray,kgph
Light Naphtha,30,6883.710192
Heavy Naphtha,27,13790.036013
Kerosene,21,10500.835598
LGO,15,9157.644601
HGO,8,7252.160893

Tray Profile
Tray,TempK,PressurePa,Vfrac,L_kgph,V_kgph,DrawTarget_kgph,DrawActual_kgph,Kmin,Kmax,Htarget,Hcalc,dH
1,703.674138,156200.000000,0.950000,2341.244618,46224.662907,0.000000,0.000000,nan,nan,nan,nan,nan
2,679.136803,156000.000000,0.495549,48657.539902,46654.419184,0.000000,0.000000,0.329075,94.245149,16.726885,16.726886,0.000001
3,645.623467,155800.000000,0.511407,46474.128972,47866.018866,0.000000,0.000000,0.176924,89.612401,15.355795,15.355795,0.000000
4,620.395568,155600.000000,0.766934,46786.899814,152227.168962,0.000000,0.000000,0.104756,84.940437,52.778476,52.778476,-0.000000
5,629.419751,155400.000000,0.749428,50492.398917,150103.151259,0.000000,0.000000,0.127476,86.657708,50.369744,50.369745,0.000001
6,623.690710,155200.000000,0.759133,47965.347265,150711.006351,0.000000,0.000000,0.113081,85.404971,51.135120,51.135120,0.000000
7,616.985607,155000.000000,0.757949,48373.156168,151414.205951,0.000000,0.000000,0.097904,83.890859,50.130566,50.130566,-0.000001
8,609.502668,154800.000000,0.729232,49025.867565,152226.970268,13150.000000,7252.160893,0.082957,82.127323,44.808264,44.808264,-0.000000
9,602.556884,154600.000000,0.727005,57309.316905,152941.354028,0.000000,0.000000,0.070817,80.437204,43.649943,43.649943,-0.000001
10,595.878348,154400.000000,0.724984,58132.510027,153615.749333,0.000000,0.000000,0.060565,78.765515,42.566647,42.566647,-0.000000
11,589.458469,154200.000000,0.723029,58945.038851,154248.174477,0.000000,0.000000,0.051900,77.120071,41.534284,41.534284,0.000000
12,583.247880,154000.000000,0.721183,59726.264194,154842.050829,0.000000,0.000000,0.044523,75.495731,40.550974,40.550974,0.000000
13,577.168684,153800.000000,0.719451,60470.638874,155405.642644,0.000000,0.000000,0.038170,73.876948,39.607162,39.607162,-0.000000
14,571.134417,153600.000000,0.717759,61183.354965,155904.207190,0.000000,0.000000,0.032631,72.243228,38.681298,38.681298,-0.000000
15,564.760363,153400.000000,0.686828,61830.433203,156437.329102,13150.000000,9157.644601,0.027526,70.486544,33.290187,33.290187,-0.000001
16,559.007671,153200.000000,0.685313,71892.719572,156848.847125,0.000000,0.000000,0.023515,68.887605,32.439293,32.439293,-0.000001
17,553.482781,153000.000000,0.683936,72473.977129,157103.420303,0.000000,0.000000,0.020140,67.338897,31.638338,31.638339,0.000001
18,547.424260,152800.000000,0.682996,72907.630894,157367.461049,0.000000,0.000000,0.016917,65.616928,30.848415,30.848415,0.000000
19,540.653825,152600.000000,0.682126,73363.562379,157725.734566,0.000000,0.000000,0.013842,63.663065,29.997047,29.997047,-0.000000
20,533.646649,152400.000000,0.680864,73926.227326,158019.064457,0.000000,0.000000,0.011174,61.623759,29.065236,29.065236,0.000000
21,525.976870,152200.000000,0.649787,74435.899980,158330.277393,12600.000000,10500.835598,0.008770,59.368825,23.566836,23.566835,-0.000001
22,518.630364,152000.000000,0.648645,85730.262675,158555.689398,0.000000,0.000000,0.006899,57.196289,22.625147,22.625148,0.000001
23,511.340701,151800.000000,0.647729,86204.978584,158751.979092,0.000000,0.000000,0.005393,55.028821,21.728184,21.728183,-0.000000
24,504.067011,151600.000000,0.646928,86635.975570,158919.089719,0.000000,0.000000,0.004184,52.858869,20.855867,20.855867,-0.000000
25,496.725007,151400.000000,0.646269,87008.380082,159048.886445,0.000000,0.000000,0.003209,50.667124,20.005605,20.005605,-0.000000
26,489.134843,151200.000000,0.645682,87297.809757,159049.959366,0.000000,0.000000,0.002415,48.407359,19.150875,19.150875,-0.000001
27,480.605512,151000.000000,0.610485,87398.124677,158936.241664,13900.000000,13790.036013,0.001732,45.885630,12.971862,12.971863,0.000001
28,471.828980,150800.000000,0.610258,101422.933916,158504.305085,0.000000,0.000000,0.001212,43.332668,12.070374,12.070374,-0.000000
29,461.414736,150600.000000,0.610155,100929.986966,157533.298194,0.000000,0.000000,0.000776,40.363745,11.048961,11.048962,0.000001
30,446.887099,150400.000000,0.593804,99812.133565,155707.270364,6600.000000,6883.710192,0.000399,36.323250,7.141878,7.141878,0.000000
31,425.758678,150200.000000,0.595470,104797.473149,153744.564189,0.000000,0.000000,0.000138,30.629749,5.347580,5.347581,0.000001
32,398.150000,150000.000000,0.000000,102682.491092,0.000000,0.000000,0.000000,nan,nan,nan,nan,nan

Stream Summary
Stream,Role,Tray,kgph,TempK,PressurePa,Vfrac,MW,rhoL_kgm3
Feed,Feed,3,100000.000000,628.150000,155800.000000,0.000000,0.000000,0.000000
Distillate,Distillate,32,50074.368085,398.150000,150000.000000,0.000000,194.407852,612.761535
Light Naphtha,SideDraw,30,6883.710192,446.887099,150400.000000,0.593804,237.945983,641.170373
Heavy Naphtha,SideDraw,27,13790.036013,480.605512,151000.000000,0.610485,261.101159,656.726845
Kerosene,SideDraw,21,10500.835598,525.976870,152200.000000,0.649787,299.008609,682.352734
LGO,SideDraw,15,9157.644601,564.760363,153400.000000,0.686828,333.154705,705.449983
HGO,SideDraw,8,7252.160893,609.502668,154800.000000,0.729232,375.348448,733.996425
Bottoms,Bottoms,1,2341.244618,703.674138,156200.000000,0.000000,424.714406,767.386922

Diagnostics
Level,Code,Message
info,ACTIVE_SPECS,Condenser spec: Temperature (Qc calculated) | Reboiler spec: Duty (Treb calculated)
warning,REB_VFRAC_CLAMP,Reboiler vapor fraction limited to keep a liquid bottoms draw (V used=0.950; raw=1.000).
