Solve Summary
Key,Value
Status,OK
DiagnosticsCount,2
FluidName,Brent
Trays,32
FeedTray,3
ComponentCount,30
CondenserType,total
ReboilerType,partial
CondenserSpec,temperature
ReboilerSpec,duty

Energy / Boundary Summary
Key,Value
Tc_set_K,398.150000
Tc_calc_K,398.150000
Qc_set_kW,-6000.000000
Qc_calc_kW,-6741.474266
Treb_set_K,618.150000
Treb_calc_K,724.091375
Qr_set_kW,6000.000000
Qr_calc_kW,6000.000000
RefluxRatio_set,2.000000
RefluxRatio_calc,2.001712
BoilupRatio_set,0.060000
BoilupRatio_calc,19.301589
RefluxFraction,0.400205
BoilupFraction,0.950743
D_kgph,51074.346973
B_kgph,2264.938088
L_ref_kgph,104990.550360
V_boil_kgph,44894.713466

Mass Balance Summary
Key,Value
Feed_kgph,100000.000000
Overhead_kgph,51074.346973
Bottoms_kgph,2264.938088
TotalProducts_kgph,100000.000000
MassClosureError_kgph,-0.000000
MassClosureRelativePct,-0.000000

Side Draw Summary
Name,Tray,kgph
Light Naphtha,30,6860.407654
Heavy Naphtha,27,13710.537021
Kerosene,21,10666.051233
LGO,15,8643.168446
HGO,8,6780.550585

Tray Profile
Tray,TempK,PressurePa,Vfrac,L_kgph,V_kgph,DrawTarget_kgph,DrawActual_kgph,Kmin,Kmax,Htarget,Hcalc,dH
1,724.091375,156200.000000,0.950000,2264.938088,44894.713466,0.000000,0.000000,nan,nan,nan,nan,nan
2,698.597470,156000.000000,0.493200,47257.593122,44805.092626,0.000000,0.000000,0.456581,84.396357,19.028122,19.028122,-0.000000
3,658.515504,155800.000000,0.512218,44571.583467,45935.140132,0.000000,0.000000,0.227815,78.561808,17.597777,17.597776,-0.000001
4,627.078399,155600.000000,0.772951,44729.004662,150127.896638,0.000000,0.000000,0.121839,72.477580,56.258073,56.258074,0.000000
5,636.148346,155400.000000,0.755921,48123.543124,147594.176165,0.000000,0.000000,0.147784,73.881572,53.564932,53.564932,0.000001
6,626.884548,155200.000000,0.768637,45023.111987,148504.864226,0.000000,0.000000,0.122461,71.408531,54.352236,54.352235,-0.000001
7,616.209356,155000.000000,0.767287,45569.090494,149616.812128,0.000000,0.000000,0.097774,68.521644,52.812513,52.812513,0.000000
8,605.031434,154800.000000,0.738712,46481.666868,150848.030852,13050.000000,6780.550585,0.076487,65.440455,47.000678,47.000678,0.000001
9,595.472272,154600.000000,0.735670,54589.104243,151837.592472,0.000000,0.000000,0.061494,62.807333,45.424608,45.424609,0.000000
10,586.931746,154400.000000,0.733172,55561.473398,152681.396557,0.000000,0.000000,0.050251,60.478126,44.071349,44.071348,-0.000000
11,579.134166,154200.000000,0.730978,56434.689825,153401.267889,0.000000,0.000000,0.041532,58.387793,42.860581,42.860582,0.000001
12,571.776615,154000.000000,0.729083,57208.080427,154027.806256,0.000000,0.000000,0.034492,56.451309,41.750253,41.750253,-0.000000
13,564.569981,153800.000000,0.727432,57900.560822,154595.103668,0.000000,0.000000,0.028585,54.583263,40.696356,40.696355,-0.000001
14,557.268316,153600.000000,0.725882,58541.095048,155082.178804,0.000000,0.000000,0.023486,52.709046,39.648763,39.648763,-0.000000
15,549.310479,153400.000000,0.695891,59107.704633,155629.334195,13050.000000,8643.168446,0.018819,50.672868,34.184255,34.184255,0.000000
16,541.920615,153200.000000,0.694512,68618.996386,156063.421828,0.000000,0.000000,0.015215,48.790316,33.161859,33.161859,0.000000
17,534.760882,153000.000000,0.693248,69152.702627,156348.922809,0.000000,0.000000,0.012304,46.968548,32.186992,32.186993,0.000001
18,527.061903,152800.000000,0.692463,69551.008237,156700.582026,0.000000,0.000000,0.009718,45.007415,31.230952,31.230952,-0.000000
19,518.913737,152600.000000,0.691616,70034.316430,157207.452830,0.000000,0.000000,0.007505,42.931667,30.227348,30.227347,-0.000001
20,511.240983,152400.000000,0.690105,70696.586355,157631.931914,0.000000,0.000000,0.005832,40.997271,29.186452,29.186453,0.000001
21,503.749281,152200.000000,0.657281,71305.475175,158005.269549,13300.000000,10666.051233,0.004518,39.137240,23.436939,23.436939,0.000001
22,497.276860,152000.000000,0.655779,82860.946572,158173.277534,0.000000,0.000000,0.003595,37.568722,22.546518,22.546518,-0.000001
23,491.102822,151800.000000,0.654583,83300.832794,158188.314655,0.000000,0.000000,0.002870,36.107135,21.733700,21.733701,0.000001
24,484.674067,151600.000000,0.653578,83608.545303,158050.722581,0.000000,0.000000,0.002250,34.614345,20.921539,20.921539,0.000001
25,477.350390,151400.000000,0.652821,83771.798628,157775.428202,0.000000,0.000000,0.001688,32.934402,20.050805,20.050804,-0.000001
26,468.436693,151200.000000,0.652252,83786.817202,157315.795186,0.000000,0.000000,0.001173,30.904232,19.036939,19.036939,-0.000000
27,456.831704,151000.000000,0.616274,83581.862365,156881.554474,14400.000000,13710.537021,0.000712,28.282502,12.293548,12.293548,0.000000
28,444.447298,150800.000000,0.616336,97428.582804,156434.444438,0.000000,0.000000,0.000405,25.538063,10.974232,10.974231,-0.000000
29,431.341175,150600.000000,0.616433,97110.131751,155861.374366,0.000000,0.000000,0.000214,22.728781,9.613849,9.613849,-0.000000
30,417.037084,150400.000000,0.599625,96574.470609,154907.019538,6800.000000,6860.407654,0.000101,19.821089,5.535307,5.535307,-0.000000
31,401.241847,150200.000000,0.605694,102619.904621,157351.133605,0.000000,0.000000,0.000040,16.833365,4.920635,4.920635,0.000000
32,398.150000,150000.000000,0.000000,104990.550360,0.000000,0.000000,0.000000,nan,nan,nan,nan,nan

Stream Summary
Stream,Role,Tray,kgph,TempK,PressurePa,Vfrac,MW,rhoL_kgm3
Feed,Feed,3,100000.000000,628.150000,155800.000000,0.000000,0.000000,0.000000
Distillate,Distillate,32,51074.346973,398.150000,150000.000000,0.000000,178.748390,603.135614
Light Naphtha,SideDraw,30,6860.407654,417.037084,150400.000000,0.599625,210.629527,623.004072
Heavy Naphtha,SideDraw,27,13710.537021,456.831704,151000.000000,0.616274,241.295385,641.732017
Kerosene,SideDraw,21,10666.051233,503.749281,152200.000000,0.657281,277.559509,664.115195
LGO,SideDraw,15,8643.168446,549.310479,153400.000000,0.695891,319.505168,690.429307
HGO,SideDraw,8,6780.550585,605.031434,154800.000000,0.738712,374.497559,724.738264
Bottoms,Bottoms,1,2264.938088,724.091375,156200.000000,0.000000,440.146934,765.718765

Diagnostics
Level,Code,Message
info,ACTIVE_SPECS,Condenser spec: Temperature (Qc calculated) | Reboiler spec: Duty (Treb calculated)
warning,REB_VFRAC_CLAMP,Reboiler vapor fraction limited to keep a liquid bottoms draw (V used=0.950; raw=1.000).
